"Time (s)","Acceleration x (m/s^2)","Acceleration y (m/s^2)","Acceleration z (m/s^2)"
5.272281200E-2,-2.837289333E0,-1.673211098E1,-5.967699528E0
6.243739600E-2,-2.212463617E0,-1.491745472E1,-4.124329090E0
7.215109400E-2,-1.274178028E0,-1.373240948E1,-2.247458696E0
8.186411500E-2,-3.547359705E-1,-1.246361542E1,-7.797610760E-1
9.157786500E-2,5.168496966E-1,-1.117777157E1,3.095714152E-1
1.012925000E-1,1.242174029E0,-9.760622978E0,5.416752100E-1
1.110062500E-1,1.656431437E0,-8.072785378E0,-1.022931710E-1
1.207192190E-1,1.819143414E0,-5.961119175E0,-1.117448211E0
1.304330730E-1,1.898106575E0,-3.801596880E0,-2.316850424E0
1.401476560E-1,1.634896040E0,-1.701895118E0,-3.549752474E0
1.498613540E-1,1.474277854E0,-2.362912335E-2,-4.634299278E0
1.595743750E-1,1.941177368E0,1.324128270E0,-5.666203976E0
1.692881250E-1,2.432005167E0,2.305783749E0,-5.886343479E0
1.790027600E-1,2.312364101E0,3.131606579E0,-5.086842060E0
1.887164580E-1,1.591825247E0,3.385545015E0,-3.537788391E0
1.984294790E-1,7.058826685E-1,3.076571703E0,-2.230708838E0
2.081432290E-1,-2.997010350E-1,2.585743904E0,-1.105484009E0
2.178578650E-1,-1.175773263E0,2.123630047E0,-5.811567903E-1
2.275716150E-1,-2.255534410E0,1.381555915E0,-5.691927075E-1
2.372845830E-1,-2.569293261E0,4.262215197E-1,-7.701897621E-1
2.469984370E-1,-1.613958836E0,7.208377868E-2,-1.672882080E0
2.567129690E-1,-2.518445849E-1,-4.354937077E-1,-3.511467218E0
2.664267190E-1,1.426421404E0,-9.741778970E-1,-5.311767101E0
2.761396870E-1,2.827120066E0,-1.232901812E0,-5.680561066E0
2.858535420E-1,3.267698526E0,-1.350150228E0,-4.328018188E0
2.955681250E-1,3.128615618E0,-1.723430514E0,-1.792523265E0
3.052818230E-1,2.750549555E0,-2.321935177E0,1.449153185E0
3.149948440E-1,1.907677889E0,-2.295614243E0,5.157430172E0
3.247085940E-1,1.146461129E0,-1.819442511E0,7.917850018E0
3.344232290E-1,6.556333899E-1,-1.390828133E0,9.078967094E0
3.441369270E-1,4.618147612E-1,-7.181459069E-1,8.439785004E0
3.538499480E-1,-5.102694035E-1,3.257229924E-1,5.629115105E0
3.635636980E-1,-2.552543640E0,1.659422517E0,5.751747489E-1
3.732783330E-1,-4.185346127E0,2.736790895E0,-4.835296154E0
3.829920830E-1,-4.266701698E0,2.676671267E0,-6.872784615E0
3.927050520E-1,-2.969193697E0,8.428717852E-1,-5.682953835E0
4.024189060E-1,-1.087238789E0,-1.852941990E0,-4.505086899E0
4.121334370E-1,3.251247704E-1,-4.004986763E0,-5.311767101E0
4.218471870E-1,3.035893738E-1,-5.405685425E0,-6.628716946E0
4.315601560E-1,-1.968395710E0,-7.589136124E0,-7.025925636E0
4.412740100E-1,-6.392724991E0,-1.290389442E1,-1.048804092E1
4.509885940E-1,-9.866504669E0,-1.917907143E1,-7.813762188E0
4.607022920E-1,-1.154955673E1,-2.637787819E1,-3.733999729E0
4.704153120E-1,-7.443772316E0,-2.929652405E1,-4.062115669E0
4.801290620E-1,-2.111965179E0,-2.892773056E1,-3.628715515E0
4.898436980E-1,-8.910273314E-1,-3.410370636E1,-4.416552544E0
4.995573960E-1,2.223829508E0,-3.831746674E1,-8.421838760E0
5.092704170E-1,6.133402824E0,-3.692633820E1,-1.173529911E1
5.189841670E-1,5.455635548E0,-3.436960602E1,-9.444171906E0
5.286988020E-1,1.984248161E0,-3.250201035E1,-4.404588223E0
5.384125520E-1,-1.609173179E0,-3.023002434E1,-2.419741869E0
5.481255210E-1,-4.829314232E0,-2.722553635E1,-4.591228485E0
5.578393750E-1,-7.656733513E0,-2.460150719E1,-8.728119850E0
5.675539060E-1,-9.320642471E0,-2.239412880E1,-1.164915752E1
5.772676560E-1,-9.212965012E0,-2.018914223E1,-1.175922775E1
5.869806250E-1,-7.888837337E0,-1.834337807E1,-1.034417248E1
5.966944790E-1,-6.284748554E0,-1.727558136E1,-8.314161301E0
6.064090620E-1,-4.328915119E0,-1.621974754E1,-5.934200287E0
6.161227600E-1,-2.324926376E0,-1.422323704E1,-3.518645763E0
6.258357810E-1,-5.150550604E-1,-1.187228870E1,-1.296909928E0
6.355495310E-1,5.886343718E-1,-1.044048309E1,1.417747438E-1
6.452641670E-1,1.290030479E0,-8.822037697E0,6.158527136E-1
6.549778650E-1,1.601396561E0,-6.224329948E0,2.377867550E-1
6.646908850E-1,1.474277854E0,-3.959523201E0,-7.677969933E-1
6.744046350E-1,8.135597110E-1,-2.144866467E0,-2.111067772E0
6.841192710E-1,-1.585244983E-1,-3.708875179E-1,-3.159423113E0
6.938330210E-1,-6.825526357E-1,1.161416292E0,-3.451646566E0
7.035459900E-1,-5.222335458E-1,2.545065880E0,-3.097209692E0
7.132598440E-1,-1.752742529E-1,3.445365429E0,-2.630609512E0
7.229743750E-1,1.935195327E-1,3.677469254E0,-1.940878272E0
7.326881250E-1,3.299104273E-1,3.710968733E0,-1.155733347E0
7.424010940E-1,2.006980032E-1,3.344866991E0,-6.290132403E-1
7.521149480E-1,-3.379862010E-2,2.537887573E0,-2.386840582E-1
7.618295310E-1,-7.857431173E-1,1.135095239E0,5.249254704E-1
7.715432290E-1,-1.056132078E0,2.300100774E-1,9.918249846E-1
7.812562500E-1,-9.077770710E-1,-3.320041299E-2,3.909274042E-1
7.909700000E-1,-5.150550604E-1,-1.938186288E-1,-1.036092162E0
8.006846350E-1,3.320041299E-2,-3.038884699E-1,-2.209173441E0
8.103983850E-1,4.689932466E-1,-3.661018610E-1,-2.501097918E0
8.201113540E-1,8.063812256E-1,-5.910272002E-1,-1.809273005E0
8.298252080E-1,1.091426253E0,-9.000003934E-1,-6.984050870E-1
8.395397920E-1,1.134497046E0,-1.182353497E0,2.521436810E-1
8.492534900E-1,1.141675472E0,-1.374078393E0,8.123632669E-1
8.589665100E-1,1.036391258E0,-1.534397483E0,8.985049129E-1
8.686802600E-1,7.250252366E-1,-1.512862086E0,7.450651526E-1
8.783948960E-1,4.594219327E-1,-1.426720500E0,3.526422381E-1
8.881086460E-1,3.035893738E-1,-1.254437327E0,-2.093719877E-2
8.978216150E-1,7.387840003E-2,-9.933205247E-1,-4.064807594E-1
9.075354690E-1,-1.728814393E-1,-6.822535396E-1,-9.834501147E-1
9.172500000E-1,-4.097708762E-1,-3.349951804E-1,-1.560419440E0
9.269637500E-1,-5.964110494E-1,-4.516452923E-2,-1.761416554E0
9.366767710E-1,-6.777670383E-1,1.079761237E-1,-1.165304661E0
9.463905210E-1,-6.996015310E-1,4.097708687E-2,-5.787639618E-1
9.561051560E-1,-1.094417214E0,-9.263214469E-1,-1.373480201E0
9.658189060E-1,-1.601994753E0,-2.475374937E0,-2.594418049E0
9.755318750E-1,-1.877468467E0,-3.547957659E0,-4.304089546E0
9.852457290E-1,-1.877468467E0,-4.953142643E0,-4.799404144E0
9.949603120E-1,-1.460818172E0,-9.023035049E0,-7.828119278E0
1.004674062E0,-2.619542599E0,-1.541546059E1,-1.524257946E1
1.014387031E0,-2.100000858E0,-2.143909264E1,-1.575494289E1
1.024100885E0,-3.177369356E0,-2.532443810E1,-1.293230915E1
1.033815469E0,-5.401497841E0,-3.015345383E1,-1.176162052E1
1.043529167E0,-7.477271557E0,-3.344059372E1,-4.399802685E0
1.053242187E0,-6.251249313E0,-3.603112411E1,-4.141078472E0
1.062956042E0,-1.930110574E0,-3.368227005E1,-6.717251301E0
1.072670573E0,1.481456280E0,-3.083092117E1,-6.456134796E0
1.082384323E0,2.022533417E0,-2.903540802E1,-9.257232547E-1
1.092097344E0,7.944171429E-1,-2.829811859E1,-1.067198873E0
1.101811198E0,-2.459223509E0,-2.523351097E1,-4.900201797E0
1.111525729E0,-5.827719688E0,-2.411307144E1,-5.201697350E0
1.121239479E0,-7.110870838E0,-2.341885376E1,-4.912165642E0
1.130952500E0,-6.972086906E0,-2.202084732E1,-5.239982605E0
1.140666250E0,-6.279963017E0,-2.096022987E1,-5.812166214E0
1.150380885E0,-3.998406649E0,-2.084776688E1,-6.722036839E0
1.160094635E0,-1.223629713E0,-2.083789635E1,-6.810571671E0
1.169807656E0,7.298108935E-1,-1.958824348E1,-6.190531254E0
1.179521406E0,1.498206019E0,-1.748405647E1,-4.856831551E0
1.189236042E0,1.613360643E0,-1.529581928E1,-2.721536636E0
1.198949792E0,1.136889815E0,-1.302144146E1,-1.253839016E0
1.208662812E0,2.844468057E-1,-1.103420258E1,-1.038485050E0
1.218376667E0,-4.432703853E-1,-9.217152596E0,-1.529312730E0
1.228091198E0,-1.039382339E0,-7.284948349E0,-2.139781713E0
1.237804948E0,-1.077667475E0,-5.489434242E0,-2.893819809E0
1.247517969E0,-8.288139701E-1,-3.571886063E0,-3.830011845E0
1.257231823E0,-5.006981492E-1,-1.654038668E0,-4.682155609E0
1.266946354E0,9.272187948E-3,-3.708875179E-1,-5.211268425E0
1.276660104E0,8.853443861E-1,4.070789516E-1,-5.266303539E0
1.286373125E0,1.721037745E0,1.240379453E0,-4.830510616E0
1.296086979E0,1.902892232E0,2.408675194E0,-3.542573929E0
1.305801562E0,1.534098387E0,3.263211966E0,-1.909771562E0
1.315515260E0,6.053841114E-1,3.452543974E0,-7.582256794E-1
1.325228281E0,-9.005986452E-1,3.160320520E0,-1.477568001E-1
1.334942135E0,-2.353640079E0,2.918645382E0,1.680957973E-1
1.344656719E0,-3.426223040E0,1.450947881E0,2.617149651E-1
1.354370469E0,-2.858824968E0,2.754737139E-1,3.239283562E-1
1.364083437E0,-1.836790442E0,-2.321037948E-1,-1.860419661E-1
1.373797292E0,-7.833502889E-1,-4.211367965E-1,-1.625025630E0
1.383511875E0,5.048855543E-1,-4.043870270E-1,-3.487539053E0
1.393225625E0,1.208674550E0,1.917249113E-1,-4.605585575E0
1.402938646E0,1.215852976E0,2.539383173E-1,-4.354339123E0
1.412652500E0,1.062712312E0,-9.023932219E-1,-3.501895905E0
1.422367083E0,1.172782183E0,-1.570289850E0,-1.749452472E0
1.432080781E0,1.215852976E0,-1.644467354E0,-4.007977992E-2
1.441793802E0,1.352243900E0,-1.572682738E0,1.039681435E0
1.451507656E0,1.524527073E0,-1.414756417E0,1.628614902E0
1.461222240E0,1.438385487E0,-1.201795220E0,2.006979942E0
1.470935990E0,1.141675472E0,-8.976075649E-1,2.167299032E0
1.480649010E0,8.566305041E-1,-7.109674215E-1,2.073979139E0
1.490362865E0,6.723831892E-1,-5.982056856E-1,1.499402523E0
1.500077448E0,3.634099364E-1,-4.761717021E-1,4.914259613E-1
1.509791146E0,-1.872383654E-1,-4.713860750E-1,-5.213362575E-1
1.519504167E0,-6.681957245E-1,-7.660023570E-1,-1.332802176E0
1.529218021E0,-8.718847632E-1,-1.266401410E0,-2.288136721E0
1.538932604E0,-1.096810102E0,-2.027618170E0,-3.051746130E0
1.548646354E0,-1.678565025E0,-3.140878916E0,-3.528217077E0
1.558359375E0,-2.684148788E0,-4.565206528E0,-3.269792080E0
1.568073229E0,-4.517948151E0,-6.640980244E0,-4.126721859E0
1.577787812E0,-7.216155052E0,-1.140060329E1,-8.783154488E0
1.587501562E0,-7.434200764E0,-1.835534286E1,-1.535025597E1
1.597214531E0,-4.173381805E0,-2.394557381E1,-1.143589783E1
1.606928385E0,-1.058524966E0,-2.695006180E1,-7.777870178E0
1.616642969E0,2.063211441E0,-2.804417992E1,-1.266879940E1
1.626356719E0,1.761715651E0,-2.686152840E1,-1.136172009E1
1.636069740E0,-7.187440991E-1,-2.854218674E1,-5.953342915E0
1.645783594E0,-2.853440940E-1,-3.160440063E1,-3.113959551E0
1.655498177E0,1.265204996E-1,-3.263391495E1,-4.397409916E0
1.665211927E0,3.083750308E-1,-3.082613564E1,-9.135198593E0
1.674924948E0,-5.198407173E-1,-2.641137886E1,-1.250369453E1
1.684638802E0,-3.206083298E0,-2.478366089E1,-1.066510963E1
1.694353385E0,-4.791028976E0,-2.343799782E1,-7.595716476E0
1.704067135E0,-6.093322754E0,-2.179083824E1,-5.999105453E0
1.713780156E0,-6.840182781E0,-1.946860313E1,-5.134698391E0
1.723494010E0,-7.091728210E0,-1.758694649E1,-5.434100151E0
1.733208594E0,-6.514758587E0,-1.668186188E1,-6.264708996E0
1.742922344E0,-5.631208897E0,-1.681586075E1,-7.337291718E0
1.752635312E0,-4.781457901E0,-1.764198303E1,-7.763513088E0
1.762349219E0,-3.850051641E0,-1.769701767E1,-7.428218842E0
1.772063802E0,-2.490330219E0,-1.601635742E1,-5.582455158E0
1.781777552E0,-1.084846020E0,-1.464198112E1,-2.956033230E0
1.791490521E0,7.148557901E-2,-1.406740475E1,-6.960122585E-1
1.801204375E0,1.074676514E0,-1.340429306E1,4.818546474E-1
1.810919010E0,1.893320918E0,-1.219053364E1,8.554341197E-1
1.820632708E0,2.570788860E0,-1.062473106E1,6.613163352E-1
1.830345729E0,3.032902718E0,-9.042177200E0,-3.529413417E-2
1.840059583E0,3.104687452E0,-7.217949390E0,-1.172483087E0
1.849774167E0,2.831905603E0,-5.051248550E0,-2.527418852E0
1.859487917E0,2.542074919E0,-2.999702215E0,-3.956831455E0
1.869200937E0,2.309971094E0,-1.510469317E0,-4.763511658E0
1.878914792E0,2.484647274E0,-6.101697683E-1,-4.706083775E0
1.888629375E0,2.889333248E0,2.682952285E-1,-3.851547241E0
1.898343125E0,3.109472990E0,1.053739309E0,-2.469991207E0
1.908056146E0,2.767299414E0,1.599302888E0,-1.270588875E0
1.917770000E0,2.024926186E0,2.051845312E0,-2.985046208E-1
1.927484583E0,5.407779217E-1,2.571387053E0,-2.889333367E-1
1.937198333E0,-1.274178028E0,3.145963669E0,-7.199404836E-1
1.946911354E0,-3.476472139E0,3.498007536E0,-1.395015597E0
1.956625208E0,-5.607280731E0,3.074178934E0,-2.168495417E0
1.966339844E0,-6.368796349E0,2.219642162E0,-3.032603502E0
1.976053594E0,-5.128417015E0,1.860419631E0,-3.133102179E0
1.985766562E0,-3.196511984E0,1.640279889E0,-2.936890602E0
1.995480417E0,-1.396211982E0,1.063310504E0,-2.601596355E0
2.005195052E0,-4.097708687E-2,3.879363835E-1,-1.995913148E0
2.014908802E0,1.014855862E0,-1.172483116E-1,-1.031306505E0
2.024621771E0,1.843071699E0,-6.583253145E-1,1.824527234E-1
2.034335677E0,2.393719912E0,-1.122532964E0,1.240678549E0
2.044050260E0,2.668894529E0,-1.328614831E0,1.841576099E0
2.053764010E0,2.767299414E0,-1.412363529E0,1.911267042E0
2.063477031E0,2.477468729E0,-1.424327731E0,1.315155149E0
2.073190885E0,1.850250125E0,-1.350150228E0,2.641077936E-1
2.082905469E0,1.156032443E0,-1.208973646E0,-8.419744968E-1
2.092619219E0,3.801597059E-1,-9.430712461E-1,-1.962413669E0
2.102332240E0,-2.709871531E-1,-6.583253145E-1,-2.666501760E0
2.112046094E0,-3.379862010E-1,-7.109674215E-1,-2.767000198E0
2.121760677E0,1.166501082E-2,-1.100997567E0,-2.405385017E0
2.131474427E0,1.408774406E-1,-1.639681697E0,-1.229910851E0
2.141187448E0,-4.671986103E-1,-2.358126640E0,1.585244983E-1
2.150901302E0,-1.661815286E0,-3.107379198E0,4.842474759E-1
2.160615937E0,-2.796611547E0,-4.093820572E0,-5.309075117E-1
2.170329687E0,-4.446163654E0,-6.332305908E0,-4.076472282E0
2.180042708E0,-5.437390327E0,-1.123759270E1,-1.295623684E1
2.189756458E0,-2.988336325E0,-1.741197205E1,-2.466342163E1
2.199471146E0,-3.212364316E-1,-1.940638924E1,-2.151745796E1
2.209184896E0,-6.275177598E-1,-2.176930237E1,-1.477089405E1
2.218897917E0,-1.312463164E0,-2.471157646E1,-8.802596092E0
2.228611771E0,-2.052144527E0,-2.698595428E1,-5.733202934E0
2.238326354E0,-2.272284269E0,-2.758236504E1,-3.928117514E0
2.248040104E0,-1.467996716E0,-2.588226509E1,-2.125424623E0
2.257753125E0,-3.714857101E-1,-2.544916344E1,-2.192423820E0
2.267466979E0,-1.393819153E-1,-2.562144661E1,-4.651049137E0
2.277181615E0,-7.689933777E-1,-2.512344170E1,-6.460920334E0
2.286895365E0,-2.305783749E0,-2.366322136E1,-7.370790958E0
2.296608385E0,-4.596911430E0,-2.275574303E1,-7.706085205E0
2.306322240E0,-5.559424400E0,-2.229602242E1,-7.459325314E0
2.316036823E0,-5.245964527E0,-2.174058914E1,-6.714858532E0
2.325750573E0,-4.462913513E0,-2.172862434E1,-7.059424877E0
2.335463594E0,-3.440579891E0,-2.198256302E1,-8.383553505E0
2.345177448E0,-2.741576433E0,-2.161137581E1,-9.202198029E0
2.354892031E0,-2.437688112E0,-2.080439568E1,-9.309874535E0
2.364605885E0,-2.377867460E0,-2.014367867E1,-9.065806389E0
2.374318854E0,-1.896611094E0,-1.934178352E1,-7.590930939E0
2.384032708E0,-1.036989570E0,-1.811127472E1,-5.467599869E0
2.393747292E0,-2.829512656E-1,-1.679911041E1,-3.303291559E0
2.403461042E0,9.302098304E-2,-1.558774376E1,-1.971984982E0
2.413174062E0,2.940180898E-1,-1.449841118E1,-1.809273005E0
2.422887917E0,2.341975123E-1,-1.288714409E1,-2.185245275E0
2.432602500E0,-3.379862010E-2,-1.081645584E1,-2.946461916E0
2.442316250E0,-2.973082066E-1,-8.716753960E0,-3.758227110E0
2.452029271E0,-3.978067636E-1,-6.779763699E0,-4.205684662E0
2.461743177E0,-3.355933726E-1,-4.955535889E0,-4.102793694E0
2.471457760E0,-1.944168471E-2,-3.411267757E0,-3.707678795E0
2.481171510E0,4.474578202E-1,-2.168794632E0,-3.063710213E0
2.490884531E0,1.065105200E0,-1.031605721E0,-2.312064886E0
2.500598385E0,1.699502230E0,-1.555334777E-1,-1.569990754E0
2.510312969E0,2.183151484E0,6.514459848E-1,-9.089735150E-1
2.520026719E0,2.321935177E0,1.695314884E0,-5.213362575E-1
2.529739740E0,1.924427629E0,2.578565598E0,-3.702892959E-1
2.539453646E0,1.201496124E0,3.136392355E0,-3.008974493E-1
2.549168229E0,-2.422732860E-2,3.754039526E0,-8.395816684E-1
2.558881979E0,-1.910967946E0,3.933800459E0,-2.309672117E0
2.568595000E0,-3.809373617E0,2.537887573E0,-3.628715515E0
2.578308854E0,-3.677768469E0,1.482054472E0,-3.511467218E0
2.588023490E0,-3.191726208E0,1.242772222E0,-2.621038198E0
2.597737240E0,-2.813361168E0,1.113559842E0,-1.581954837E0
2.607450260E0,-2.298605204E0,5.772684813E-1,-1.148554921E0
2.617164115E0,-1.700100541E0,3.140579537E-2,-1.036092162E0
2.626878698E0,-8.694919348E-1,-1.028913707E-1,-6.290132403E-1
2.636592448E0,5.952146277E-2,-1.507478207E-1,-1.118644550E-1
2.646305469E0,1.098604679E0,-4.402793646E-1,2.330010980E-1
2.656019323E0,1.938784599E0,-8.712865710E-1,2.569293380E-1
2.665733958E0,2.365005970E0,-1.115354419E0,2.138585299E-1
2.675447708E0,2.465504646E0,-1.134497046E0,-7.118647546E-2
2.685160729E0,2.278864384E0,-1.481755376E0,-5.285146832E-1
2.694874583E0,2.180758715E0,-1.955833435E0,-1.081555843E0
2.704589167E0,1.886142492E0,-2.006082773E0,-1.383051515E0
2.714302917E0,1.010070205E0,-1.826620936E0,-1.457229018E0
2.724015937E0,8.344969153E-2,-1.520040631E0,-1.538884044E0
2.733729792E0,-8.883354068E-2,-1.206580877E0,-1.871486425E0
2.743444427E0,1.169492081E-1,-1.295115232E0,-2.355135679E0
2.753158177E0,2.413759828E-1,-1.752144337E0,-2.781357288E0
2.762871198E0,-1.079761237E-1,-2.183151484E0,-2.781357288E0
2.772585052E0,-1.058524966E0,-3.136093140E0,-3.202793121E0
2.782299635E0,-2.080858469E0,-4.945964336E0,-4.663012981E0
2.792013385E0,-3.031407118E0,-8.410173416E0,-7.404290676E0
2.801726406E0,-3.828516245E0,-1.258564854E1,-1.004267693E1
2.811440312E0,-4.417449474E0,-1.547767448E1,-9.408279419E0
2.821154896E0,-4.690530777E0,-1.771137428E1,-9.894022942E0
2.830868646E0,-3.287439108E0,-2.063689804E1,-1.379881001E1
2.840581667E0,-2.030609131E0,-2.190329933E1,-1.123968601E1
2.850295521E0,-2.925225794E-1,-2.435743904E1,-7.701299667E0
2.860010104E0,1.701895118E0,-2.709393120E1,-7.344470024E0
2.869723958E0,2.372184515E0,-2.816890717E1,-6.934998035E0
2.879436927E0,1.965105653E0,-2.776422119E1,-6.008676529E0
2.889150781E0,1.079462171E0,-2.748874664E1,-5.960521221E0
2.898865365E0,-1.204487085E0,-2.583201599E1,-5.338088036E0
2.908579115E0,-3.799802303E0,-2.345474625E1,-4.002295017E0
2.918292135E0,-5.842076302E0,-2.167598152E1,-3.032603502E0
2.928005990E0,-6.239284992E0,-2.027289009E1,-3.523431301E0
2.937720625E0,-5.655137062E0,-1.929153442E1,-4.924129963E0
2.947434375E0,-4.901099205E0,-1.915484428E1,-5.979663849E0
2.957147396E0,-3.996013880E0,-1.940878296E1,-6.858428001E0
2.966861250E0,-2.799004316E0,-1.988525391E1,-7.284649372E0
2.976575833E0,-2.121536493E0,-2.064168549E1,-7.394719124E0
2.986289583E0,-2.401795626E0,-2.053161430E1,-7.124330521E0
2.996002604E0,-3.048156977E0,-1.954995918E1,-6.602396011E0
3.005716458E0,-2.612364054E0,-1.824766541E1,-5.687739372E0
3.015431094E0,-1.472782373E0,-1.700519180E1,-4.801796913E0
3.025144844E0,-7.283154130E-1,-1.596132374E1,-4.385445595E0
3.034857865E0,-7.402794957E-1,-1.467817211E1,-4.469194412E0
3.044571719E0,-9.795617461E-1,-1.316740417E1,-4.789832592E0
3.054286302E0,-9.077770710E-1,-1.161595726E1,-4.940879822E0
3.064000052E0,-3.164508045E-1,-1.010040379E1,-4.823332310E0
3.073713073E0,5.599204898E-1,-8.644968987E0,-4.706083775E0
3.083426927E0,1.402493119E0,-7.325626373E0,-4.289433479E0
3.093141562E0,1.981855392E0,-6.025725842E0,-3.099602699E0
3.102855312E0,2.223829508E0,-4.577469826E0,-2.091925144E0
3.112568333E0,2.240579367E0,-3.334697485E0,-1.560419440E0
3.122282187E0,2.130509377E0,-2.422732830E0,-1.567597985E0
3.131996771E0,2.036890268E0,-1.191924810E0,-1.962413669E0
3.141710521E0,1.778465390E0,1.630110443E-1,-2.103889227E0
3.151423542E0,1.325922847E0,1.211665511E0,-2.003091574E0
3.161137396E0,7.058826685E-1,1.925025821E0,-1.739881158E0
3.170852031E0,-2.973082066E-1,2.578565598E0,-1.648953915E0
3.180565781E0,-1.365105271E0,3.114856958E0,-2.163709879E0
3.190278802E0,-2.430509567E0,3.294617653E0,-2.728715181E0
3.199992656E0,-3.787838221E0,2.789433002E0,-3.142673492E0
3.209707240E0,-4.618745804E0,1.848455548E0,-2.984747171E0
3.219420990E0,-4.269094467E0,1.532303810E0,-2.197209358E0
3.229134010E0,-3.060121059E0,1.364806175E0,-1.344766378E0
3.238847865E0,-1.822433591E0,7.591229677E-1,-7.175477147E-1
3.248562500E0,-6.753742099E-1,2.491526604E-1,-5.404788256E-1
3.258276250E0,4.689932466E-1,-9.571290761E-2,-4.399802685E-1
3.267989271E0,1.493420482E0,-4.043870270E-1,-4.256233275E-1
3.277703125E0,2.226222277E0,-7.995018363E-1,-2.410768867E-1
3.287417708E0,2.546860695E0,-1.206580877E0,1.824527234E-1
3.297131458E0,2.568396091E0,-1.488933921E0,6.852445602E-1
3.306844479E0,2.489432812E0,-1.867298961E0,8.434699774E-1
